# distance - potential
0.000e+00 2.258e-01
1.005e-01 2.254e-01
2.010e-01 2.251e-01
3.015e-01 2.247e-01
4.020e-01 2.244e-01
5.025e-01 2.240e-01
6.030e-01 2.237e-01
7.035e-01 2.233e-01
8.040e-01 2.230e-01
9.045e-01 2.227e-01
1.005e+00 2.223e-01
1.106e+00 2.220e-01
1.206e+00 2.216e-01
1.307e+00 2.213e-01
1.407e+00 2.209e-01
1.508e+00 2.206e-01
1.608e+00 2.203e-01
1.709e+00 2.199e-01
1.809e+00 2.196e-01
1.910e+00 2.192e-01
2.010e+00 2.189e-01
2.111e+00 2.185e-01
2.211e+00 2.182e-01
2.312e+00 2.179e-01
2.412e+00 2.175e-01
2.513e+00 2.172e-01
2.613e+00 2.168e-01
2.714e+00 2.165e-01
2.814e+00 2.161e-01
2.915e+00 2.158e-01
3.015e+00 2.154e-01
3.116e+00 2.151e-01
3.216e+00 2.148e-01
3.317e+00 2.144e-01
3.417e+00 2.141e-01
3.518e+00 2.137e-01
3.618e+00 2.134e-01
3.719e+00 2.131e-01
3.819e+00 2.127e-01
3.920e+00 2.124e-01
4.020e+00 2.120e-01
4.121e+00 2.117e-01
4.221e+00 2.113e-01
4.322e+00 2.110e-01
4.422e+00 2.107e-01
4.523e+00 2.103e-01
4.623e+00 2.100e-01
4.724e+00 2.096e-01
4.824e+00 2.093e-01
4.925e+00 2.089e-01
5.025e+00 2.086e-01
5.126e+00 2.083e-01
5.226e+00 2.079e-01
5.327e+00 2.076e-01
5.427e+00 2.072e-01
5.528e+00 2.069e-01
5.628e+00 2.066e-01
5.729e+00 2.062e-01
5.829e+00 2.059e-01
5.930e+00 2.055e-01
6.030e+00 2.052e-01
6.131e+00 2.049e-01
6.231e+00 2.045e-01
6.332e+00 2.042e-01
6.432e+00 2.038e-01
6.533e+00 2.035e-01
6.633e+00 2.032e-01
6.734e+00 2.028e-01
6.834e+00 2.025e-01
6.935e+00 2.021e-01
7.035e+00 2.018e-01
7.136e+00 2.015e-01
7.236e+00 2.011e-01
7.337e+00 2.008e-01
7.437e+00 2.004e-01
7.538e+00 2.001e-01
7.638e+00 1.998e-01
7.739e+00 1.994e-01
7.839e+00 1.991e-01
7.940e+00 1.988e-01
8.040e+00 1.984e-01
8.141e+00 1.981e-01
8.241e+00 1.977e-01
8.342e+00 1.974e-01
8.442e+00 1.971e-01
8.543e+00 1.967e-01
8.643e+00 1.964e-01
8.744e+00 1.961e-01
8.844e+00 1.957e-01
8.945e+00 1.954e-01
9.045e+00 1.950e-01
9.146e+00 1.947e-01
9.246e+00 1.944e-01
9.347e+00 1.940e-01
9.447e+00 1.937e-01
9.548e+00 1.934e-01
9.648e+00 1.930e-01
9.749e+00 1.927e-01
9.849e+00 1.924e-01
9.950e+00 1.920e-01
1.005e+01 1.917e-01
1.015e+01 1.914e-01
1.025e+01 1.910e-01
1.035e+01 1.907e-01
1.045e+01 1.904e-01
1.055e+01 1.900e-01
1.065e+01 1.897e-01
1.075e+01 1.893e-01
1.085e+01 1.890e-01
1.095e+01 1.887e-01
1.106e+01 1.883e-01
1.116e+01 1.880e-01
1.126e+01 1.877e-01
1.136e+01 1.874e-01
1.146e+01 1.870e-01
1.156e+01 1.867e-01
1.166e+01 1.864e-01
1.176e+01 1.860e-01
1.186e+01 1.857e-01
1.196e+01 1.854e-01
1.206e+01 1.850e-01
1.216e+01 1.847e-01
1.226e+01 1.844e-01
1.236e+01 1.840e-01
1.246e+01 1.837e-01
1.256e+01 1.834e-01
1.266e+01 1.830e-01
1.276e+01 1.827e-01
1.286e+01 1.824e-01
1.296e+01 1.821e-01
1.307e+01 1.817e-01
1.317e+01 1.814e-01
1.327e+01 1.811e-01
1.337e+01 1.807e-01
1.347e+01 1.804e-01
1.357e+01 1.801e-01
1.367e+01 1.798e-01
1.377e+01 1.794e-01
1.387e+01 1.791e-01
1.397e+01 1.788e-01
1.407e+01 1.784e-01
1.417e+01 1.781e-01
1.427e+01 1.778e-01
1.437e+01 1.775e-01
1.447e+01 1.771e-01
1.457e+01 1.768e-01
1.467e+01 1.765e-01
1.477e+01 1.762e-01
1.487e+01 1.758e-01
1.497e+01 1.755e-01
1.508e+01 1.752e-01
1.518e+01 1.749e-01
1.528e+01 1.745e-01
1.538e+01 1.742e-01
1.548e+01 1.739e-01
1.558e+01 1.736e-01
1.568e+01 1.732e-01
1.578e+01 1.729e-01
1.588e+01 1.726e-01
1.598e+01 1.723e-01
1.608e+01 1.719e-01
1.618e+01 1.716e-01
1.628e+01 1.713e-01
1.638e+01 1.710e-01
1.648e+01 1.707e-01
1.658e+01 1.703e-01
1.668e+01 1.700e-01
1.678e+01 1.697e-01
1.688e+01 1.694e-01
1.698e+01 1.690e-01
1.709e+01 1.687e-01
1.719e+01 1.684e-01
1.729e+01 1.681e-01
1.739e+01 1.678e-01
1.749e+01 1.675e-01
1.759e+01 1.671e-01
1.769e+01 1.668e-01
1.779e+01 1.665e-01
1.789e+01 1.662e-01
1.799e+01 1.659e-01
1.809e+01 1.655e-01
1.819e+01 1.652e-01
1.829e+01 1.649e-01
1.839e+01 1.646e-01
1.849e+01 1.643e-01
1.859e+01 1.640e-01
1.869e+01 1.636e-01
1.879e+01 1.633e-01
1.889e+01 1.630e-01
1.899e+01 1.627e-01
1.910e+01 1.624e-01
1.920e+01 1.621e-01
1.930e+01 1.617e-01
1.940e+01 1.614e-01
1.950e+01 1.611e-01
1.960e+01 1.608e-01
1.970e+01 1.605e-01
1.980e+01 1.602e-01
1.990e+01 1.599e-01
2.000e+01 1.596e-01
